30.02500 665.0
30.07500 694.0
30.12500 706.0
30.17500 740.0
30.22500 732.0
30.27500 747.0
30.32500 735.0
30.37500 771.0
30.42500 751.0
30.47500 738.0
30.52500 743.0
30.57500 685.0
30.62500 747.0
30.67500 690.0
30.72500 674.0
30.77500 676.0
30.82500 724.0
30.87500 704.0
30.92500 692.0
30.97500 727.0
31.02500 695.0
31.07500 719.0
31.12500 756.0
31.17500 764.0
31.22500 774.0
31.27500 838.0
31.32500 856.0
31.37500 1006.0
31.42500 1397.0
31.47500 1942.0
31.52500 3258.0
31.57500 3276.0
31.62500 4473.0
31.67500 4478.0
31.72500 4282.0
31.77500 4032.0
31.82500 2551.0
31.87500 2631.0
31.92500 1540.0
31.97500 1105.0
32.02500 906.0
32.07500 769.0
32.12500 706.0
32.17500 710.0
32.22500 660.0
32.27500 705.0
32.32500 685.0
32.37500 694.0
32.42500 643.0
32.47500 652.0
32.52500 651.0
32.57500 645.0
32.62500 640.0
32.67500 626.0
32.72500 614.0
32.77500 662.0
32.82500 649.0
32.87500 646.0
32.92500 612.0
32.97500 634.0
33.02500 617.0
33.07500 595.0
33.12500 634.0
33.17500 633.0
33.22500 637.0
33.27500 632.0
33.32500 609.0
33.37500 620.0
33.42500 665.0
33.47500 653.0
33.52500 618.0
33.57500 580.0
33.62500 625.0
33.67500 550.0
33.72500 564.0
33.77500 607.0
33.82500 608.0
33.87500 633.0
33.92500 634.0
33.97500 614.0
34.02500 643.0
34.07500 626.0
34.12500 644.0
34.17500 601.0
34.22500 602.0
34.27500 635.0
34.32500 605.0
34.37500 587.0
34.42500 606.0
34.47500 625.0
34.52500 611.0
34.57500 624.0
34.62500 615.0
34.67500 637.0
34.72500 654.0
34.77500 579.0
34.82500 623.0
34.87500 638.0
34.92500 640.0
34.97500 586.0
35.02500 610.0
35.07500 674.0
35.12500 650.0
35.17500 605.0
35.22500 621.0
35.27500 610.0
35.32500 619.0
35.37500 613.0
35.42500 602.0
35.47500 623.0
35.52500 626.0
35.57500 658.0
35.62500 698.0
35.67500 662.0
35.72500 693.0
35.77500 660.0
35.82500 658.0
35.87500 706.0
35.92500 743.0
35.97500 719.0
36.02500 744.0
36.07500 792.0
36.12500 794.0
36.17500 814.0
36.22500 759.0
36.27500 799.0
36.32500 781.0
36.37500 810.0
36.42500 885.0
36.47500 948.0
36.52500 837.0
36.57500 907.0
36.62500 972.0
36.67500 968.0
36.72500 901.0
36.77500 972.0
36.82500 968.0
36.87500 949.0
36.92500 1007.0
36.97500 1049.0
37.02500 1066.0
37.07500 1147.0
37.12500 1088.0
37.17500 1187.0
37.22500 1234.0
37.27500 1323.0
37.32500 1348.0
37.37500 1528.0
37.42500 1594.0
37.47500 1682.0
37.52500 1948.0
37.57500 2015.0
37.62500 2209.0
37.67500 2484.0
37.72500 2813.0
37.77500 3166.0
37.82500 3551.0
37.87500 3735.0
37.92500 4426.0
37.97500 4942.0
38.02500 5453.0
38.07500 5683.0
38.12500 5940.0
38.17500 6391.0
38.22500 6559.0
38.27500 6458.0
38.32500 6435.0
38.37500 6190.0
38.42500 5759.0
38.47500 5532.0
38.52500 4927.0
38.57500 4510.0
38.62500 3967.0
38.67500 3654.0
38.72500 3187.0
38.77500 2892.0
38.82500 2626.0
38.87500 2333.0
38.92500 2227.0
38.97500 1979.0
39.02500 1805.0
39.07500 1743.0
39.12500 1559.0
39.17500 1550.0
39.22500 1451.0
39.27500 1334.0
39.32500 1245.0
39.37500 1236.0
39.42500 1151.0
39.47500 1081.0
39.52500 1074.0
39.57500 1050.0
39.62500 1007.0
39.67500 987.0
39.72500 929.0
39.77500 935.0
39.82500 872.0
39.87500 905.0
39.92500 830.0
39.97500 856.0
40.02500 796.0
40.07500 834.0
40.12500 781.0
40.17500 754.0
40.22500 749.0
40.27500 722.0
40.32500 755.0
40.37500 678.0
40.42500 688.0
40.47500 660.0
40.52500 692.0
40.57500 726.0
40.62500 697.0
40.67500 681.0
40.72500 695.0
40.77500 650.0
40.82500 696.0
40.87500 697.0
40.92500 674.0
40.97500 664.0
41.02500 652.0
41.07500 695.0
41.12500 652.0
41.17500 629.0
41.22500 652.0
41.27500 640.0
41.32500 640.0
41.37500 646.0
41.42500 631.0
41.47500 631.0
41.52500 625.0
41.57500 624.0
41.62500 634.0
41.67500 660.0
41.72500 642.0
41.77500 698.0
41.82500 640.0
41.87500 645.0
41.92500 700.0
41.97500 677.0
42.02500 640.0
42.07500 643.0
42.12500 637.0
42.17500 656.0
42.22500 729.0
42.27500 662.0
42.32500 678.0
42.37500 658.0
42.42500 693.0
42.47500 709.0
42.52500 679.0
42.57500 733.0
42.62500 694.0
42.67500 742.0
42.72500 740.0
42.77500 750.0
42.82500 731.0
42.87500 757.0
42.92500 761.0
42.97500 768.0
43.02500 823.0
43.07500 903.0
43.12500 888.0
43.17500 898.0
43.22500 925.0
43.27500 972.0
43.32500 968.0
43.37500 1023.0
43.42500 1055.0
43.47500 1057.0
43.52500 1135.0
43.57500 1174.0
43.62500 1199.0
43.67500 1265.0
43.72500 1265.0
43.77500 1381.0
43.82500 1377.0
43.87500 1438.0
43.92500 1501.0
43.97500 1637.0
44.02500 1648.0
44.07500 1713.0
44.12500 1768.0
44.17500 1889.0
44.22500 1876.0
44.27500 1977.0
44.32500 2021.0
44.37500 2032.0
44.42500 2023.0
44.47500 1979.0
44.52500 2040.0
44.57500 1995.0
44.62500 1915.0
44.67500 1886.0
44.72500 1730.0
44.77500 1697.0
44.82500 1606.0
44.87500 1480.0
44.92500 1424.0
44.97500 1395.0
45.02500 1281.0
45.07500 1231.0
45.12500 1129.0
45.17500 1235.0
45.22500 1321.0
45.27500 1500.0
45.32500 1690.0
45.37500 1664.0
45.42500 1881.0
45.47500 1736.0
45.52500 1665.0
45.57500 1434.0
45.62500 1213.0
45.67500 979.0
45.72500 864.0
45.77500 717.0
45.82500 668.0
45.87500 702.0
45.92500 635.0
45.97500 574.0
46.02500 537.0
46.07500 577.0
46.12500 566.0
46.17500 531.0
46.22500 538.0
46.27500 482.0
46.32500 496.0
46.37500 494.0
46.42500 477.0
46.47500 498.0
46.52500 464.0
46.57500 447.0
46.62500 454.0
46.67500 473.0
46.72500 424.0
46.77500 467.0
46.82500 434.0
46.87500 472.0
46.92500 390.0
46.97500 383.0
47.02500 399.0
47.07500 412.0
47.12500 404.0
47.17500 435.0
47.22500 440.0
47.27500 428.0
47.32500 439.0
47.37500 404.0
47.42500 407.0
47.47500 420.0
47.52500 417.0
47.57500 383.0
47.62500 383.0
47.67500 378.0
47.72500 390.0
47.77500 390.0
47.82500 361.0
47.87500 400.0
47.92500 363.0
47.97500 379.0
48.02500 404.0
48.07500 374.0
48.12500 415.0
48.17500 377.0
48.22500 397.0
48.27500 353.0
48.32500 375.0
48.37500 345.0
48.42500 360.0
48.47500 391.0
48.52500 332.0
48.57500 392.0
48.62500 322.0
48.67500 366.0
48.72500 374.0
48.77500 354.0
48.82500 375.0
48.87500 398.0
48.92500 326.0
48.97500 359.0
49.02500 399.0
49.07500 348.0
49.12500 386.0
49.17500 341.0
49.22500 345.0
49.27500 351.0
49.32500 312.0
49.37500 331.0
49.42500 355.0
49.47500 361.0
49.52500 347.0
49.57500 339.0
49.62500 337.0
49.67500 364.0
49.72500 340.0
49.77500 325.0
49.82500 337.0
49.87500 338.0
49.92500 308.0
49.97500 348.0
50.02500 326.0
50.07500 361.0
50.12500 349.0
50.17500 350.0
50.22500 380.0
50.27500 379.0
50.32500 345.0
50.37500 335.0
50.42500 375.0
50.47500 357.0
50.52500 394.0
50.57500 340.0
50.62500 369.0
50.67500 381.0
50.72500 338.0
50.77500 354.0
50.82500 384.0
50.87500 358.0
50.92500 365.0
50.97500 354.0
51.02500 385.0
51.07500 359.0
51.12500 389.0
51.17500 358.0
51.22500 363.0
51.27500 373.0
51.32500 497.0
51.37500 841.0
51.42500 1417.0
51.47500 1836.0
51.52500 2389.0
51.57500 2840.0
51.62500 3006.0
51.67500 2702.0
51.72500 2051.0
51.77500 1509.0
51.82500 993.0
51.87500 620.0
51.92500 421.0
51.97500 415.0
52.02500 381.0
52.07500 349.0
52.12500 375.0
52.17500 398.0
52.22500 396.0
52.27500 394.0
52.32500 436.0
52.37500 400.0
52.42500 429.0
52.47500 432.0
52.52500 494.0
52.57500 464.0
52.62500 465.0
52.67500 467.0
52.72500 467.0
52.77500 419.0
52.82500 466.0
52.87500 489.0
52.92500 482.0
52.97500 436.0
53.02500 441.0
53.07500 413.0
53.12500 515.0
53.17500 476.0
53.22500 510.0
53.27500 506.0
53.32500 502.0
53.37500 509.0
53.42500 538.0
53.47500 559.0
53.52500 592.0
53.57500 568.0
53.62500 686.0
53.67500 780.0
53.72500 810.0
53.77500 975.0
53.82500 937.0
53.87500 969.0
53.92500 869.0
53.97500 829.0
54.02500 727.0
54.07500 685.0
54.12500 615.0
54.17500 651.0
54.22500 651.0
54.27500 631.0
54.32500 622.0
54.37500 653.0
54.42500 649.0
54.47500 687.0
54.52500 743.0
54.57500 706.0
54.62500 701.0
54.67500 706.0
54.72500 739.0
54.77500 768.0
54.82500 758.0
54.87500 725.0
54.92500 809.0
54.97500 810.0
55.02500 771.0
55.07500 773.0
55.12500 801.0
55.17500 798.0
55.22500 785.0
55.27500 816.0
55.32500 823.0
55.37500 843.0
55.42500 762.0
55.47500 791.0
55.52500 840.0
55.57500 778.0
55.62500 750.0
55.67500 818.0
55.72500 765.0
55.77500 799.0
55.82500 778.0
55.87500 749.0
55.92500 745.0
55.97500 757.0
56.02500 680.0
56.07500 758.0
56.12500 753.0
56.17500 735.0
56.22500 729.0
56.27500 816.0
56.32500 897.0
56.37500 880.0
56.42500 896.0
56.47500 878.0
56.52500 901.0
56.57500 824.0
56.62500 758.0
56.67500 656.0
56.72500 626.0
56.77500 563.0
56.82500 584.0
56.87500 502.0
56.92500 515.0
56.97500 479.0
57.02500 467.0
57.07500 455.0
57.12500 424.0
57.17500 456.0
57.22500 452.0
57.27500 427.0
57.32500 438.0
57.37500 406.0
57.42500 418.0
57.47500 406.0
57.52500 417.0
57.57500 377.0
57.62500 401.0
57.67500 418.0
57.72500 367.0
57.77500 405.0
57.82500 367.0
57.87500 365.0
57.92500 367.0
57.97500 333.0
58.02500 351.0
58.07500 326.0
58.12500 363.0
58.17500 309.0
58.22500 364.0
58.27500 347.0
58.32500 343.0
58.37500 318.0
58.42500 340.0
58.47500 315.0
58.52500 313.0
58.57500 312.0
58.62500 277.0
58.67500 320.0
58.72500 300.0
58.77500 290.0
58.82500 301.0
58.87500 318.0
58.92500 286.0
58.97500 284.0
59.02500 304.0
59.07500 284.0
59.12500 301.0
59.17500 268.0
59.22500 283.0
59.27500 283.0
59.32500 294.0
59.37500 283.0
59.42500 284.0
59.47500 275.0
59.52500 280.0
59.57500 300.0
59.62500 266.0
59.67500 291.0
59.72500 275.0
59.77500 281.0
59.82500 300.0
59.87500 269.0
59.92500 255.0
59.97500 285.0
60.02500 288.0
60.07500 296.0
60.12500 271.0
60.17500 276.0
60.22500 303.0
60.27500 263.0
60.32500 260.0
60.37500 264.0
60.42500 268.0
60.47500 260.0
60.52500 282.0
60.57500 267.0
60.62500 257.0
60.67500 258.0
60.72500 262.0
60.77500 250.0
60.82500 273.0
60.87500 266.0
60.92500 284.0
60.97500 276.0
61.02500 222.0
61.07500 266.0
61.12500 253.0
61.17500 269.0
61.22500 281.0
61.27500 275.0
61.32500 315.0
61.37500 283.0
61.42500 261.0
61.47500 286.0
61.52500 285.0
61.57500 277.0
61.62500 283.0
61.67500 301.0
61.72500 285.0
61.77500 276.0
61.82500 302.0
61.87500 318.0
61.92500 273.0
61.97500 274.0
62.02500 265.0
62.07500 287.0
62.12500 290.0
62.17500 286.0
62.22500 300.0
62.27500 306.0
62.32500 295.0
62.37500 320.0
62.42500 271.0
62.47500 263.0
62.52500 282.0
62.57500 301.0
62.62500 293.0
62.67500 299.0
62.72500 292.0
62.77500 316.0
62.82500 306.0
62.87500 315.0
62.92500 344.0
62.97500 333.0
63.02500 334.0
63.07500 356.0
63.12500 310.0
63.17500 323.0
63.22500 332.0
63.27500 375.0
63.32500 369.0
63.37500 407.0
63.42500 381.0
63.47500 383.0
63.52500 461.0
63.57500 447.0
63.62500 460.0
63.67500 452.0
63.72500 518.0
63.77500 526.0
63.82500 537.0
63.87500 531.0
63.92500 576.0
63.97500 595.0
64.02500 683.0
64.07500 737.0
64.12500 703.0
64.17500 826.0
64.22500 864.0
64.27500 970.0
64.32500 943.0
64.37500 1051.0
64.42500 1183.0
64.47500 1193.0
64.52500 1225.0
64.57500 1326.0
64.62500 1395.0
64.67500 1395.0
64.72500 1365.0
64.77500 1438.0
64.82500 1418.0
64.87500 1402.0
64.92500 1297.0
64.97500 1344.0
65.02500 1205.0
65.07500 1180.0
65.12500 1087.0
65.17500 1017.0
65.22500 937.0
65.27500 841.0
65.32500 871.0
65.37500 747.0
65.42500 768.0
65.47500 651.0
65.52500 657.0
65.57500 574.0
65.62500 561.0
65.67500 553.0
65.72500 526.0
65.77500 472.0
65.82500 449.0
65.87500 425.0
65.92500 439.0
65.97500 404.0
66.02500 409.0
66.07500 434.0
66.12500 451.0
66.17500 495.0
66.22500 569.0
66.27500 532.0
66.32500 566.0
66.37500 601.0
66.42500 486.0
66.47500 508.0
66.52500 412.0
66.57500 341.0
66.62500 363.0
66.67500 347.0
66.72500 282.0
66.77500 263.0
66.82500 298.0
66.87500 307.0
66.92500 276.0
66.97500 274.0
67.02500 285.0
67.07500 295.0
67.12500 292.0
67.17500 278.0
67.22500 273.0
67.27500 247.0
67.32500 243.0
67.37500 262.0
67.42500 239.0
67.47500 228.0
67.52500 222.0
67.57500 245.0
67.62500 224.0
67.67500 221.0
67.72500 206.0
67.77500 221.0
67.82500 248.0
67.87500 219.0
67.92500 246.0
67.97500 242.0
68.02500 213.0
68.07500 191.0
68.12500 225.0
68.17500 213.0
68.22500 216.0
68.27500 203.0
68.32500 227.0
68.37500 231.0
68.42500 225.0
68.47500 215.0
68.52500 226.0
68.57500 225.0
68.62500 213.0
68.67500 236.0
68.72500 220.0
68.77500 207.0
68.82500 220.0
68.87500 217.0
68.92500 223.0
68.97500 214.0
69.02500 204.0
69.07500 187.0
69.12500 253.0
69.17500 195.0
69.22500 212.0
69.27500 196.0
69.32500 216.0
69.37500 211.0
69.42500 217.0
69.47500 193.0
69.52500 234.0
69.57500 196.0
69.62500 237.0
69.67500 206.0
69.72500 211.0
69.77500 226.0
69.82500 203.0
69.87500 236.0
69.92500 199.0
69.97500 223.0
70.02500 198.0
70.07500 208.0
70.12500 204.0
70.17500 210.0
70.22500 193.0
70.27500 204.0
70.32500 196.0
70.37500 190.0
70.42500 176.0
70.47500 211.0
70.52500 195.0
70.57500 210.0
70.62500 223.0
70.67500 215.0
70.72500 197.0
70.77500 195.0
70.82500 203.0
70.87500 208.0
70.92500 232.0
70.97500 207.0
71.02500 200.0
71.07500 198.0
71.12500 194.0
71.17500 215.0
71.22500 224.0
71.27500 205.0
71.32500 214.0
71.37500 239.0
71.42500 273.0
71.47500 254.0
71.52500 241.0
71.57500 299.0
71.62500 285.0
71.67500 318.0
71.72500 320.0
71.77500 281.0
71.82500 259.0
71.87500 244.0
71.92500 219.0
71.97500 199.0
72.02500 205.0
72.07500 213.0
72.12500 179.0
72.17500 216.0
72.22500 201.0
72.27500 197.0
72.32500 231.0
72.37500 215.0
72.42500 247.0
72.47500 212.0
72.52500 233.0
72.57500 205.0
72.62500 222.0
72.67500 199.0
72.72500 238.0
72.77500 222.0
72.82500 218.0
72.87500 227.0
72.92500 228.0
72.97500 247.0
73.02500 267.0
73.07500 242.0
73.12500 258.0
73.17500 232.0
73.22500 249.0
73.27500 228.0
73.32500 233.0
73.37500 251.0
73.42500 253.0
73.47500 214.0
73.52500 211.0
73.57500 235.0
73.62500 259.0
73.67500 221.0
73.72500 241.0
73.77500 237.0
73.82500 240.0
73.87500 205.0
73.92500 256.0
73.97500 242.0
74.02500 239.0
74.07500 276.0
74.12500 256.0
74.17500 239.0
74.22500 243.0
74.27500 253.0
74.32500 251.0
74.37500 278.0
74.42500 257.0
74.47500 266.0
74.52500 227.0
74.57500 239.0
74.62500 243.0
74.67500 265.0
74.72500 256.0
74.77500 251.0
74.82500 247.0
74.87500 274.0
74.92500 279.0
74.97500 266.0
75.02500 309.0
75.07500 412.0
75.12500 428.0
75.17500 541.0
75.22500 598.0
75.27500 670.0
75.32500 594.0
75.37500 646.0
75.42500 669.0
75.47500 549.0
75.52500 499.0
75.57500 424.0
75.62500 437.0
75.67500 369.0
75.72500 328.0
75.77500 314.0
75.82500 282.0
75.87500 356.0
75.92500 321.0
75.97500 329.0
76.02500 322.0
76.07500 336.0
76.12500 350.0
76.17500 330.0
76.22500 366.0
76.27500 413.0
76.32500 366.0
76.37500 380.0
76.42500 372.0
76.47500 404.0
76.52500 427.0
76.57500 413.0
76.62500 419.0
76.67500 466.0
76.72500 497.0
76.77500 531.0
76.82500 521.0
76.87500 553.0
76.92500 586.0
76.97500 603.0
77.02500 665.0
77.07500 663.0
77.12500 760.0
77.17500 691.0
77.22500 830.0
77.27500 908.0
77.32500 936.0
77.37500 1054.0
77.42500 1016.0
77.47500 1067.0
77.52500 1131.0
77.57500 1112.0
77.62500 1136.0
77.67500 1275.0
77.72500 1199.0
77.77500 1183.0
77.82500 1252.0
77.87500 1184.0
77.92500 1083.0
77.97500 1080.0
78.02500 982.0
78.07500 971.0
78.12500 937.0
78.17500 891.0
78.22500 837.0
78.27500 798.0
78.32500 763.0
78.37500 723.0
78.42500 700.0
78.47500 618.0
78.52500 606.0
78.57500 578.0
78.62500 563.0
78.67500 547.0
78.72500 496.0
78.77500 494.0
78.82500 484.0
78.87500 431.0
78.92500 447.0
78.97500 441.0
79.02500 442.0
79.07500 348.0
79.12500 407.0
79.17500 395.0
79.22500 385.0
79.27500 405.0
79.32500 412.0
79.37500 348.0
79.42500 355.0
79.47500 355.0
79.52500 350.0
79.57500 332.0
79.62500 332.0
79.67500 345.0
79.72500 324.0
79.77500 334.0
79.82500 310.0
79.87500 327.0
79.92500 339.0
79.97500 306.0
80.02500 295.0
80.07500 335.0
80.12500 334.0
80.17500 318.0
80.22500 297.0
80.27500 330.0
80.32500 308.0
80.37500 352.0
80.42500 348.0
80.47500 310.0
80.52500 284.0
80.57500 324.0
80.62500 343.0
80.67500 317.0
80.72500 339.0
80.77500 312.0
80.82500 329.0
80.87500 374.0
80.92500 332.0
80.97500 352.0
81.02500 343.0
81.07500 346.0
81.12500 373.0
81.17500 390.0
81.22500 374.0
81.27500 432.0
81.32500 451.0
81.37500 439.0
81.42500 449.0
81.47500 499.0
81.52500 482.0
81.57500 486.0
81.62500 540.0
81.67500 532.0
81.72500 600.0
81.77500 562.0
81.82500 559.0
81.87500 491.0
81.92500 573.0
81.97500 514.0
82.02500 561.0
82.07500 553.0
82.12500 514.0
82.17500 501.0
82.22500 507.0
82.27500 459.0
82.32500 448.0
82.37500 390.0
82.42500 415.0
82.47500 368.0
82.52500 401.0
82.57500 386.0
82.62500 359.0
82.67500 358.0
82.72500 339.0
82.77500 329.0
82.82500 331.0
82.87500 327.0
82.92500 312.0
82.97500 275.0
83.02500 291.0
83.07500 337.0
83.12500 295.0
83.17500 265.0
83.22500 283.0
83.27500 276.0
83.32500 319.0
83.37500 276.0
83.42500 240.0
83.47500 262.0
83.52500 299.0
83.57500 279.0
83.62500 272.0
83.67500 270.0
83.72500 318.0
83.77500 315.0
83.82500 350.0
83.87500 387.0
83.92500 362.0
83.97500 402.0
84.02500 390.0
84.07500 368.0
84.12500 377.0
84.17500 335.0
84.22500 311.0
84.27500 331.0
84.32500 320.0
84.37500 306.0
84.42500 272.0
84.47500 303.0
84.52500 269.0
84.57500 259.0
84.62500 254.0
84.67500 224.0
84.72500 269.0
84.77500 276.0
84.82500 283.0
84.87500 245.0
84.92500 264.0
84.97500 259.0
85.02500 265.0
85.07500 274.0
85.12500 252.0
85.17500 262.0
85.22500 234.0
85.27500 265.0
85.32500 254.0
85.37500 268.0
85.42500 237.0
85.47500 280.0
85.52500 264.0
85.57500 254.0
85.62500 257.0
85.67500 266.0
85.72500 261.0
85.77500 263.0
85.82500 271.0
85.87500 265.0
85.92500 258.0
85.97500 266.0
86.02500 293.0
86.07500 264.0
86.12500 238.0
86.17500 250.0
86.22500 242.0
86.27500 240.0
86.32500 236.0
86.37500 268.0
86.42500 273.0
86.47500 248.0
86.52500 259.0
86.57500 291.0
86.62500 275.0
86.67500 259.0
86.72500 255.0
86.77500 258.0
86.82500 288.0
86.87500 272.0
86.92500 250.0
86.97500 264.0
87.02500 272.0
87.07500 267.0
87.12500 261.0
87.17500 258.0
87.22500 235.0
87.27500 264.0
87.32500 261.0
87.37500 243.0
87.42500 271.0
87.47500 253.0
87.52500 215.0
87.57500 287.0
87.62500 261.0
87.67500 237.0
87.72500 277.0
87.77500 261.0
87.82500 260.0
87.87500 280.0
87.92500 254.0
87.97500 266.0
88.02500 241.0
88.07500 271.0
88.12500 253.0
88.17500 260.0
88.22500 275.0
88.27500 270.0
88.32500 266.0
88.37500 279.0
88.42500 229.0
88.47500 275.0
88.52500 260.0
88.57500 291.0
88.62500 276.0
88.67500 251.0
88.72500 248.0
88.77500 261.0
88.82500 267.0
88.87500 266.0
88.92500 246.0
88.97500 273.0
89.02500 272.0
89.07500 257.0
89.12500 301.0
89.17500 289.0
89.22500 275.0
89.27500 247.0
89.32500 258.0
89.37500 272.0
89.42500 252.0
89.47500 285.0
89.52500 286.0
89.57500 247.0
89.62500 278.0
89.67500 285.0
89.72500 265.0
89.77500 247.0
89.82500 260.0
89.87500 294.0
89.92500 251.0
89.97500 267.0
